 #        t           theta             dtheta/dt=u       Energía        E_energía
  0.000000000E+00  0.000000000E+00  0.500000000E+00  0.122417438E+01  0.000000000E+00
  0.100000000E+00 -0.472379265E+00  0.476204599E+00  0.122415942E+01  0.149659127E-04
  0.200000000E+00 -0.902855711E+00  0.406922355E+00  0.122414166E+01  0.327187413E-04
  0.300000000E+00 -0.125077340E+01  0.298396919E+00  0.122412701E+01  0.473704704E-04
  0.400000000E+00 -0.147999448E+01  0.160749729E+00  0.122411622E+01  0.581616255E-04
  0.500000000E+00 -0.156450568E+01  0.726105270E-02  0.122410262E+01  0.717623076E-04
  0.600000000E+00 -0.149419738E+01 -0.146944024E+00  0.122408150E+01  0.928767204E-04
  0.700000000E+00 -0.127750427E+01 -0.286654925E+00  0.122405814E+01  0.116237307E-03
  0.800000000E+00 -0.939186895E+00 -0.398357196E+00  0.122404112E+01  0.133259463E-03
  0.900000000E+00 -0.514706926E+00 -0.471598887E+00  0.122403126E+01  0.143119050E-03
  0.100000000E+01 -0.444801251E-01 -0.499761786E+00  0.122402181E+01  0.152567429E-03
  0.110000000E+01  0.429640844E+00 -0.480359559E+00  0.122400734E+01  0.167040164E-03
  0.120000000E+01  0.865725846E+00 -0.415102217E+00  0.122398959E+01  0.184788423E-03
  0.130000000E+01  0.122290876E+01 -0.309854837E+00  0.122397449E+01  0.199891311E-03
  0.140000000E+01  0.146442592E+01 -0.174400104E+00  0.122396355E+01  0.210832968E-03
  0.150000000E+01  0.156306163E+01 -0.217706253E-01  0.122395053E+01  0.223849239E-03
  0.160000000E+01  0.150705071E+01  0.133010877E+00  0.122393005E+01  0.244335033E-03
  0.170000000E+01  0.130312639E+01  0.274664413E+00  0.122390649E+01  0.267893235E-03
  0.180000000E+01  0.974739528E+00  0.389452725E+00  0.122388868E+01  0.285697345E-03
  0.190000000E+01  0.556620188E+00  0.466598849E+00  0.122387838E+01  0.295996458E-03
  0.200000000E+01  0.889116618E-01  0.499111170E+00  0.122386921E+01  0.305166842E-03
  0.210000000E+01 -0.386588913E+00  0.484115371E+00  0.122385525E+01  0.319129240E-03
  0.220000000E+01 -0.827926807E+00  0.422932196E+00  0.122383757E+01  0.336814690E-03
  0.230000000E+01 -0.119405138E+01  0.321046412E+00  0.122382203E+01  0.352351983E-03
  0.240000000E+01 -0.144762164E+01  0.187896464E+00  0.122381088E+01  0.363505173E-03
  0.250000000E+01 -0.156027334E+01  0.362564632E-01  0.122379839E+01  0.375992286E-03
  0.260000000E+01 -0.151861422E+01 -0.118968421E+00  0.122377857E+01  0.395807116E-03
  0.270000000E+01 -0.132766041E+01 -0.262444655E+00  0.122375490E+01  0.419476496E-03
  0.280000000E+01 -0.100950412E+01 -0.380224622E+00  0.122373633E+01  0.438046511E-03
  0.290000000E+01 -0.598091539E+00 -0.461213468E+00  0.122372553E+01  0.448847225E-03
  0.300000000E+01 -0.133261062E+00 -0.498048965E+00  0.122371659E+01  0.457796035E-03
  0.310000000E+01  0.343257141E+00 -0.487469484E+00  0.122370314E+01  0.471237469E-03
  0.320000000E+01  0.789491133E+00 -0.430406409E+00  0.122368558E+01  0.488802535E-03
  0.330000000E+01  0.116422924E+01 -0.331962698E+00  0.122366963E+01  0.504750495E-03
  0.340000000E+01  0.142959989E+01 -0.201227508E+00  0.122365821E+01  0.516170831E-03
  0.350000000E+01  0.155614484E+01 -0.507061289E-01  0.122364619E+01  0.528189828E-03
  0.360000000E+01  0.152887676E+01  0.104828725E+00  0.122362708E+01  0.547300636E-03
  0.370000000E+01  0.135108315E+01  0.250005967E+00  0.122360339E+01  0.570993463E-03
  0.380000000E+01  0.104345061E+01  0.370680498E+00  0.122358408E+01  0.590304325E-03
  0.390000000E+01  0.639088214E+00  0.455447189E+00  0.122357272E+01  0.601664407E-03
  0.400000000E+01  0.177494835E+00  0.496576293E+00  0.122356393E+01  0.610452165E-03
  0.410000000E+01 -0.299679190E+00  0.490419657E+00  0.122355101E+01  0.623368718E-03
  0.420000000E+01 -0.750451551E+00  0.437519281E+00  0.122353362E+01  0.640757255E-03
  0.430000000E+01 -0.113347092E+01  0.342595019E+00  0.122351730E+01  0.657085644E-03
  0.440000000E+01 -0.141038000E+01  0.214382118E+00  0.122350556E+01  0.668822622E-03
  0.450000000E+01 -0.155068157E+01  0.651072375E-01  0.122349394E+01  0.680439311E-03
  0.460000000E+01 -0.153782850E+01 -0.906039498E-01  0.122347556E+01  0.698822712E-03
  0.470000000E+01 -0.137337237E+01 -0.237358869E+00  0.122345193E+01  0.722451131E-03
  0.480000000E+01 -0.107654937E+01 -0.360828238E+00  0.122343191E+01  0.742468948E-03
  0.490000000E+01 -0.679577600E+00 -0.449304756E+00  0.122341994E+01  0.754441076E-03
  0.500000000E+01 -0.221579546E+00 -0.494694587E+00  0.122341125E+01  0.763131775E-03
  0.510000000E+01  0.255888704E+00 -0.492963966E+00  0.122339885E+01  0.775526343E-03
  0.520000000E+01  0.710840951E+00 -0.444265547E+00  0.122338170E+01  0.792684377E-03
  0.530000000E+01  0.110180557E+01 -0.352934970E+00  0.122336502E+01  0.809357023E-03
  0.540000000E+01  0.138998238E+01 -0.227349370E+00  0.122335293E+01  0.821453424E-03
  0.550000000E+01  0.154389037E+01 -0.794474703E-01  0.122334164E+01  0.832737292E-03
  0.560000000E+01  0.154546100E+01  0.763063288E-01  0.122332400E+01  0.850379807E-03
  0.570000000E+01  0.139450678E+01  0.224514073E+00  0.122330052E+01  0.873857036E-03
  0.580000000E+01  0.110877127E+01  0.350675990E+00  0.122327984E+01  0.894539383E-03
  0.590000000E+01  0.719527262E+00  0.442791212E+00  0.122326721E+01  0.907170403E-03
  0.600000000E+01  0.265481825E+00  0.492405588E+00  0.122325855E+01  0.915830829E-03
  0.610000000E+01 -0.211919304E+00  0.495100799E+00  0.122324667E+01  0.927713149E-03
  0.620000000E+01 -0.670692355E+00  0.450640247E+00  0.122322979E+01  0.944589575E-03
  0.630000000E+01 -0.106926285E+01  0.362974428E+00  0.122321282E+01  0.961564998E-03
  0.640000000E+01 -0.136842847E+01  0.240118538E+00  0.122320032E+01  0.974056417E-03
  0.650000000E+01 -0.153577948E+01  0.937145872E-01  0.122318930E+01  0.985079515E-03
  0.660000000E+01 -0.155176716E+01 -0.619481601E-01  0.122317240E+01  0.100197765E-02
  0.670000000E+01 -0.141446611E+01 -0.211482476E+00  0.122314916E+01  0.102521915E-02
  0.680000000E+01 -0.114008774E+01 -0.340232166E+00  0.122312787E+01  0.104651550E-02
  0.690000000E+01 -0.758904957E+00 -0.435911895E+00  0.122311454E+01  0.105984574E-02
  0.700000000E+01 -0.309168368E+00 -0.489711345E+00  0.122310584E+01  0.106854475E-02
  0.710000000E+01  0.167804582E+00 -0.496828857E+00  0.122309445E+01  0.107993135E-02
  0.720000000E+01  0.630038897E+00 -0.456638735E+00  0.122307790E+01  0.109647859E-02
  0.730000000E+01  0.103587289E+01 -0.372705551E+00  0.122306067E+01  0.111371069E-02
  0.740000000E+01  0.134574067E+01 -0.252679112E+00  0.122304776E+01  0.112662518E-02
  0.750000000E+01  0.152635852E+01 -0.107896440E+00  0.122303692E+01  0.113746098E-02
  0.760000000E+01  0.155674133E+01  0.475417916E-01  0.122302076E+01  0.115362114E-02
  0.770000000E+01  0.143323116E+01  0.198275153E+00  0.122299784E+01  0.117654579E-02
  0.780000000E+01  0.117047073E+01  0.329505434E+00  0.122297598E+01  0.119839804E-02
  0.790000000E+01  0.797678661E+00  0.428672438E+00  0.122296192E+01  0.121246071E-02
  0.800000000E+01  0.352605943E+00  0.486614215E+00  0.122295311E+01  0.122126844E-02
  0.810000000E+01 -0.123578097E+00  0.498147152E+00  0.122294220E+01  0.123218256E-02
  0.820000000E+01 -0.588913799E+00  0.462256674E+00  0.122292602E+01  0.124835717E-02
  0.830000000E+01 -0.100166625E+01  0.382120785E+00  0.122290859E+01  0.126579594E-02
  0.840000000E+01 -0.132194233E+01  0.265020796E+00  0.122289523E+01  0.127915376E-02
  0.850000000E+01 -0.151563842E+01  0.121980984E+00  0.122288451E+01  0.128987604E-02
  0.860000000E+01 -0.156037921E+01 -0.330996087E-01  0.122286907E+01  0.130531431E-02
  0.870000000E+01 -0.145078379E+01 -0.184903341E+00  0.122284654E+01  0.132784551E-02
  0.880000000E+01 -0.119989286E+01 -0.318504712E+00  0.122282419E+01  0.135018866E-02
  0.890000000E+01 -0.835816587E+00 -0.421078766E+00  0.122280937E+01  0.136500927E-02
  0.900000000E+01 -0.395761395E+00 -0.483116860E+00  0.122280038E+01  0.137399639E-02
  0.910000000E+01  0.792733686E-01 -0.499055011E+00  0.122278991E+01  0.138446773E-02
  0.920000000E+01  0.547350356E+00 -0.467490039E+00  0.122277415E+01  0.140023095E-02
  0.930000000E+01  0.966673871E+00 -0.391212864E+00  0.122275656E+01  0.141782327E-02
  0.940000000E+01  0.129705767E+01 -0.277133526E+00  0.122274274E+01  0.143163680E-02
  0.950000000E+01  0.150363145E+01 -0.135956290E+00  0.122273206E+01  0.144231850E-02
  0.960000000E+01  0.156267798E+01  0.186340202E-01  0.122271732E+01  0.145706025E-02
  0.970000000E+01  0.146710702E+01  0.171378431E+00  0.122269525E+01  0.147912696E-02
  0.980000000E+01  0.122832736E+01  0.307239163E+00  0.122267249E+01  0.150188988E-02
  0.990000000E+01  0.873287214E+00  0.413137091E+00  0.122265690E+01  0.151748580E-02
  0.100000000E+02  0.438601658E+00  0.479222246E+00  0.122264766E+01  0.152672268E-02
